wavelength [nm],absorbance
500.00000, 0.45495988
500.01500, 0.45349370
500.03000, 0.45090725
500.04500, 0.44722069
500.06001, 0.44246238
500.07501, 0.43666862
500.09001, 0.42988319
500.10501, 0.42215688
500.12001, 0.41354690
500.13501, 0.40411627
500.15002, 0.39393313
500.16502, 0.38306997
500.18002, 0.37160294
500.19502, 0.35961103
500.21002, 0.34717530
500.22502, 0.33437812
500.24002, 0.32130241
500.25503, 0.30803094
500.27003, 0.29464563
500.28503, 0.28122695
500.30003, 0.26785330
500.31503, 0.25460056
500.33003, 0.24154158
500.34503, 0.22874589
500.36004, 0.21627930
500.37504, 0.20420373
500.39004, 0.19257705
500.40504, 0.18145294
500.42004, 0.17088087
500.43504, 0.16090613
500.45005, 0.15156988
500.46505, 0.14290927
500.48005, 0.13495757
500.49505, 0.12774437
500.51005, 0.12129572
500.52505, 0.11563434
500.54005, 0.11077984
500.55506, 0.10674889
500.57006, 0.10355537
500.58506, 0.10121059
500.60006, 0.09972333
500.61506, 0.09910000
500.63006, 0.09934467
500.64506, 0.10045909
500.66007, 0.10244271
500.67507, 0.10529257
500.69007, 0.10900323
500.70507, 0.11356666
500.72007, 0.11897206
500.73507, 0.12520566
500.75008, 0.13225056
500.76508, 0.14008647
500.78008, 0.14868947
500.79508, 0.15803183
500.81008, 0.16808177
500.82508, 0.17880325
500.84008, 0.19015583
500.85509, 0.20209452
500.87009, 0.21456969
500.88509, 0.22752703
500.90009, 0.24090761
500.91509, 0.25464791
500.93009, 0.26868006
500.94509, 0.28293198
500.96010, 0.29732776
500.97510, 0.31178803
500.99010, 0.32623039
501.00510, 0.34057001
501.02010, 0.35472015
501.03510, 0.36859291
501.05011, 0.38209987
501.06511, 0.39515293
501.08011, 0.40766507
501.09511, 0.41955119
501.11011, 0.43072895
501.12511, 0.44111961
501.14011, 0.45064885
501.15512, 0.45924760
501.17012, 0.46685276
501.18512, 0.47340792
501.20012, 0.47886402
501.21512, 0.48317989
501.23012, 0.48632273
501.24512, 0.48826852
501.26013, 0.48900228
501.27513, 0.48851822
501.29013, 0.48681988
501.30513, 0.48392000
501.32013, 0.47984040
501.33513, 0.47461174
501.35014, 0.46827310
501.36514, 0.46087156
501.38014, 0.45246162
501.39514, 0.44310457
501.41014, 0.43286781
501.42514, 0.42182409
501.44014, 0.41005069
501.45515, 0.39762862
501.47015, 0.38464177
501.48515, 0.37117606
501.50015, 0.35731859
501.51515, 0.34315689
501.53015, 0.32877804
501.54515, 0.31426805
501.56016, 0.29971110
501.57516, 0.28518897
501.59016, 0.27078049
501.60516, 0.25656106
501.62016, 0.24260226
501.63516, 0.22897157
501.65017, 0.21573207
501.66517, 0.20294237
501.68017, 0.19065646
501.69517, 0.17892374
501.71017, 0.16778905
501.72517, 0.15729281
501.74017, 0.14747117
501.75518, 0.13835621
501.77018, 0.12997618
501.78518, 0.12235577
501.80018, 0.11551639
501.81518, 0.10947643
501.83018, 0.10425156
501.84518, 0.09985498
501.86019, 0.09629768
501.87519, 0.09358864
501.89019, 0.09173504
501.90519, 0.09074237
501.92019, 0.09061454
501.93519, 0.09135396
501.95020, 0.09296152
501.96520, 0.09543655
501.98020, 0.09877672
501.99520, 0.10297793
502.01020, 0.10803410
502.02520, 0.11393695
502.04020, 0.12067579
502.05521, 0.12823716
502.07021, 0.13660463
502.08521, 0.14575838
502.10021, 0.15567500
502.11521, 0.16632711
502.13021, 0.17768309
502.14521, 0.18970684
502.16022, 0.20235753
502.17522, 0.21558946
502.19022, 0.22935188
502.20522, 0.24358899
502.22022, 0.25823990
502.23522, 0.27323876
502.25023, 0.28851488
502.26523, 0.30399302
502.28023, 0.31959368
502.29523, 0.33523357
502.31023, 0.35082607
502.32523, 0.36628183
502.34023, 0.38150944
502.35524, 0.39641612
502.37024, 0.41090855
502.38524, 0.42489366
502.40024, 0.43827956
502.41524, 0.45097635
502.43024, 0.46289713
502.44524, 0.47395883
502.46025, 0.48408314
502.47525, 0.49319736
502.49025, 0.50123521
502.50525, 0.50813761
502.52025, 0.51385332
502.53525, 0.51833960
502.55026, 0.52156264
502.56526, 0.52349803
502.58026, 0.52413104
502.59526, 0.52345673
502.61026, 0.52148011
502.62526, 0.51821598
502.64026, 0.51368882
502.65527, 0.50793245
502.67027, 0.50098962
502.68527, 0.49291152
502.70027, 0.48375715
502.71527, 0.47359265
502.73027, 0.46249052
502.74527, 0.45052881
502.76028, 0.43779024
502.77528, 0.42436132
502.79028, 0.41033141
502.80528, 0.39579184
502.82028, 0.38083499
502.83528, 0.36555341
502.85029, 0.35003899
502.86529, 0.33438217
502.88029, 0.31867122
502.89529, 0.30299159
502.91029, 0.28742530
502.92529, 0.27205048
502.94029, 0.25694094
502.95530, 0.24216583
502.97030, 0.22778944
502.98530, 0.21387101
503.00030, 0.20046470
503.01530, 0.18761956
503.03030, 0.17537967
503.04530, 0.16378423
503.06031, 0.15286782
503.07531, 0.14266063
503.09031, 0.13318879
503.10531, 0.12447465
503.12031, 0.11653720
503.13531, 0.10939237
503.15032, 0.10305343
503.16532, 0.09753135
503.18032, 0.09283510
503.19532, 0.08897201
503.21032, 0.08594803
503.22532, 0.08376794
503.24032, 0.08243560
503.25533, 0.08195405
503.27033, 0.08232563
503.28533, 0.08355198
503.30033, 0.08563406
503.31533, 0.08857201
503.33033, 0.09236508
503.34533, 0.09701140
503.36034, 0.10250775
503.37534, 0.10884928
503.39034, 0.11602919
503.40534, 0.12403838
503.42034, 0.13286505
503.43534, 0.14249438
503.45035, 0.15290804
503.46535, 0.16408389
503.48035, 0.17599554
503.49535, 0.18861204
503.51035, 0.20189757
503.52535, 0.21581115
503.54035, 0.23030644
503.55536, 0.24533159
503.57036, 0.26082919
503.58536, 0.27673625
503.60036, 0.29298429
503.61536, 0.30949954
503.63036, 0.32620320
503.64536, 0.34301183
503.66037, 0.35983776
503.67537, 0.37658972
503.69037, 0.39317340
503.70537, 0.40949222
503.72037, 0.42544811
503.73537, 0.44094234
503.75038, 0.45587648
503.76538, 0.47015327
503.78038, 0.48367768
503.79538, 0.49635782
503.81038, 0.50810593
503.82538, 0.51883939
503.84038, 0.52848158
503.85539, 0.53696279
503.87039, 0.54422100
503.88539, 0.55020264
503.90039, 0.55486321
503.91539, 0.55816781
503.93039, 0.56009156
503.94539, 0.56061989
503.96040, 0.55974877
503.97540, 0.55748469
503.99040, 0.55384461
504.00540, 0.54885575
504.02040, 0.54255525
504.03540, 0.53498973
504.05041, 0.52621471
504.06541, 0.51629395
504.08041, 0.50529872
504.09541, 0.49330694
504.11041, 0.48040233
504.12541, 0.46667341
504.14041, 0.45221260
504.15542, 0.43711520
504.17042, 0.42147840
504.18542, 0.40540035
504.20042, 0.38897915
504.21542, 0.37231203
504.23042, 0.35549443
504.24542, 0.33861931
504.26043, 0.32177636
504.27543, 0.30505145
504.29043, 0.28852606
504.30543, 0.27227686
504.32043, 0.25637540
504.33543, 0.24088778
504.35044, 0.22587460
504.36544, 0.21139084
504.38044, 0.19748590
504.39544, 0.18420374
504.41044, 0.17158300
504.42544, 0.15965734
504.44044, 0.14845568
504.45545, 0.13800256
504.47045, 0.12831858
504.48545, 0.11942079
504.50045, 0.11132310
504.51545, 0.10403678
504.53045, 0.09757089
504.54545, 0.09193267
504.56046, 0.08712796
504.57546, 0.08316160
504.59046, 0.08003775
504.60546, 0.07776015
504.62046, 0.07633240
504.63546, 0.07575812
504.65047, 0.07604104
504.66547, 0.07718512
504.68047, 0.07919447
504.69547, 0.08207331
504.71047, 0.08582582
504.72547, 0.09045595
504.74047, 0.09596712
504.75548, 0.10236192
504.77048, 0.10964174
504.78548, 0.11780635
504.80048, 0.12685344
504.81548, 0.13677816
504.83048, 0.14757259
504.84548, 0.15922526
504.86049, 0.17172064
504.87549, 0.18503864
504.89049, 0.19915412
504.90549, 0.21403652
504.92049, 0.22964941
504.93549, 0.24595021
504.95050, 0.26288991
504.96550, 0.28041289
504.98050, 0.29845683
504.99550, 0.31695272
505.01050, 0.33582496
505.02550, 0.35499158
505.04050, 0.37436453
505.05551, 0.39385013
505.07051, 0.41334963
505.08551, 0.43275979
505.10051, 0.45197368
505.11551, 0.47088148
505.13051, 0.48937143
505.14551, 0.50733080
505.16052, 0.52464697
505.17552, 0.54120849
505.19052, 0.55690625
505.20552, 0.57163459
505.22052, 0.58529246
505.23552, 0.59778455
505.25053, 0.60902233
505.26553, 0.61892508
505.28053, 0.62742085
505.29553, 0.63444731
505.31053, 0.63995247
505.32553, 0.64389535
505.34053, 0.64624645
505.35554, 0.64698812
505.37054, 0.64611477
505.38554, 0.64363296
505.40054, 0.63956128
505.41554, 0.63393017
505.43054, 0.62678151
505.44554, 0.61816812
505.46055, 0.60815311
505.47555, 0.59680913
505.49055, 0.58421753
505.50555, 0.57046738
505.52055, 0.55565444
505.53555, 0.53988010
505.55056, 0.52325026
505.56556, 0.50587416
505.58056, 0.48786329
505.59556, 0.46933018
505.61056, 0.45038739
505.62556, 0.43114641
505.64056, 0.41171667
505.65557, 0.39220464
505.67057, 0.37271301
505.68557, 0.35333992
505.70057, 0.33417837
505.71557, 0.31531565
505.73057, 0.29683297
505.74557, 0.27880511
505.76058, 0.26130024
505.77558, 0.24437985
505.79058, 0.22809871
505.80558, 0.21250505
505.82058, 0.19764067
505.83558, 0.18354131
505.85059, 0.17023690
505.86559, 0.15775204
505.88059, 0.14610641
505.89559, 0.13531530
505.91059, 0.12539007
505.92559, 0.11633874
505.94059, 0.10816649
505.95560, 0.10087621
505.97060, 0.09446898
505.98560, 0.08894461
506.00060, 0.08430203
506.01560, 0.08053973
506.03060, 0.07765611
506.04560, 0.07564976
506.06061, 0.07451973
506.07561, 0.07426569
506.09061, 0.07488801
506.10561, 0.07638783
506.12061, 0.07876701
506.13561, 0.08202801
506.15062, 0.08617372
506.16562, 0.09120725
506.18062, 0.09713158
506.19562, 0.10394924
506.21062, 0.11166186
506.22562, 0.12026977
506.24062, 0.12977146
506.25563, 0.14016308
506.27063, 0.15143790
506.28563, 0.16358577
506.30063, 0.17659258
506.31563, 0.19043972
506.33063, 0.20510358
506.34563, 0.22055508
506.36064, 0.23675926
506.37564, 0.25367490
506.39064, 0.27125425
506.40564, 0.28944278
506.42064, 0.30817911
506.43564, 0.32739491
506.45065, 0.34701502
506.46565, 0.36695762
506.48065, 0.38713450
506.49565, 0.40745148
506.51065, 0.42780892
506.52565, 0.44810232
506.54065, 0.46822308
506.55566, 0.48805930
506.57066, 0.50749669
506.58566, 0.52641957
506.60066, 0.54471195
506.61566, 0.56225859
506.63066, 0.57894619
506.64566, 0.59466454
506.66067, 0.60930768
506.67567, 0.62277508
506.69067, 0.63497275
506.70567, 0.64581428
506.72067, 0.65522190
506.73567, 0.66312735
506.75068, 0.66947269
506.76568, 0.67421102
506.78068, 0.67730705
506.79568, 0.67873753
506.81068, 0.67849151
506.82568, 0.67657052
506.84068, 0.67298854
506.85569, 0.66777181
506.87069, 0.66095857
506.88569, 0.65259854
506.90069, 0.64275236
506.91569, 0.63149085
506.93069, 0.61889420
506.94569, 0.60505098
506.96070, 0.59005720
506.97570, 0.57401515
506.99070, 0.55703231
507.00570, 0.53922017
507.02070, 0.52069306
507.03570, 0.50156693
507.05071, 0.48195826
507.06571, 0.46198293
507.08071, 0.44175513
507.09571, 0.42138640
507.11071, 0.40098472
507.12571, 0.38065366
507.14071, 0.36049171
507.15572, 0.34059163
507.17072, 0.32103993
507.18572, 0.30191654
507.20072, 0.28329447
507.21572, 0.26523964
507.23072, 0.24781088
507.24572, 0.23105988
507.26073, 0.21503142
507.27573, 0.19976349
507.29073, 0.18528768
507.30573, 0.17162952
507.32073, 0.15880886
507.33573, 0.14684044
507.35074, 0.13573434
507.36574, 0.12549653
507.38074, 0.11612946
507.39574, 0.10763260
507.41074, 0.10000298
507.42574, 0.09323580
507.44074, 0.08732490
507.45575, 0.08226327
507.47075, 0.07804351
507.48575, 0.07465826
507.50075, 0.07210052
507.51575, 0.07036401
507.53075, 0.06944339
507.54575, 0.06933447
507.56076, 0.07003430
507.57576, 0.07154131
507.59076, 0.07385522
507.60576, 0.07697704
507.62076, 0.08090890
507.63576, 0.08565388
507.65077, 0.09121577
507.66577, 0.09759872
507.68077, 0.10480693
507.69577, 0.11284423
507.71077, 0.12171363
507.72577, 0.13141683
507.74077, 0.14195375
507.75578, 0.15332197
507.77078, 0.16551620
507.78578, 0.17852777
507.80078, 0.19234404
507.81578, 0.20694794
507.83078, 0.22231743
507.84578, 0.23842510
507.86079, 0.25523772
507.87579, 0.27271590
507.89079, 0.29081382
507.90579, 0.30947900
507.92079, 0.32865218
507.93579, 0.34826730
507.95080, 0.36825154
507.96580, 0.38852549
507.98080, 0.40900342
507.99580, 0.42959366
508.01080, 0.45019906
508.02580, 0.47071761
508.04080, 0.49104310
508.05581, 0.51106595
508.07081, 0.53067402
508.08581, 0.54975363
508.10081, 0.56819053
508.11581, 0.58587101
508.13081, 0.60268300
508.14581, 0.61851725
508.16082, 0.63326842
508.17582, 0.64683627
508.19082, 0.65912675
508.20582, 0.67005312
508.22082, 0.67953688
508.23582, 0.68750878
508.25083, 0.69390960
508.26583, 0.69869093
508.28083, 0.70181572
508.29583, 0.70325881
508.31083, 0.70300725
508.32583, 0.70106046
508.34083, 0.69743031
508.35584, 0.69214099
508.37084, 0.68522872
508.38584, 0.67674142
508.40084, 0.66673806
508.41584, 0.65528806
508.43084, 0.64247048
508.44584, 0.62837310
508.46085, 0.61309142
508.47585, 0.59672765
508.49085, 0.57938951
508.50585, 0.56118915
508.52085, 0.54224189
508.53585, 0.52266508
508.55086, 0.50257692
508.56586, 0.48209531
508.58086, 0.46133677
508.59586, 0.44041538
508.61086, 0.41944186
508.62586, 0.39852268
508.64086, 0.37775927
508.65587, 0.35724736
508.67087, 0.33707643
508.68587, 0.31732921
508.70087, 0.29808138
508.71587, 0.27940129
508.73087, 0.26134989
508.74587, 0.24398066
508.76088, 0.22733972
508.77588, 0.21146598
508.79088, 0.19639140
508.80588, 0.18214134
508.82088, 0.16873493
508.83588, 0.15618553
508.85089, 0.14450123
508.86589, 0.13368538
508.88089, 0.12373715
508.89589, 0.11465211
508.91089, 0.10642278
508.92589, 0.09903928
508.94089, 0.09248980
508.95590, 0.08676124
508.97090, 0.08183968
508.98590, 0.07771087
509.00090, 0.07436075
509.01590, 0.07177576
509.03090, 0.06994332
509.04590, 0.06885205
509.06091, 0.06849210
509.07591, 0.06885532
509.09091, 0.06993545
509.10591, 0.07172820
509.12091, 0.07423124
509.13591, 0.07744426
509.15092, 0.08136883
509.16592, 0.08600827
509.18092, 0.09136746
509.19592, 0.09745256
509.21092, 0.10427075
509.22592, 0.11182982
509.24092, 0.12013779
509.25593, 0.12920245
509.27093, 0.13903090
509.28593, 0.14962897
509.30093, 0.16100074
509.31593, 0.17314793
509.33093, 0.18606935
509.34593, 0.19976031
509.36094, 0.21421204
509.37594, 0.22941115
509.39094, 0.24533907
509.40594, 0.26197161
509.42094, 0.27927846
509.43594, 0.29722286
509.45095, 0.31576121
509.46595, 0.33484290
509.48095, 0.35441013
509.49595, 0.37439785
509.51095, 0.39473380
509.52595, 0.41533870
509.54095, 0.43612649
509.55596, 0.45700472
509.57096, 0.47787508
509.58596, 0.49863395
509.60096, 0.51917322
509.61596, 0.53938103
509.63096, 0.55914274
509.64596, 0.57834197
509.66097, 0.59686163
509.67597, 0.61458511
509.69097, 0.63139745
509.70597, 0.64718657
509.72097, 0.66184451
509.73597, 0.67526862
509.75098, 0.68736276
509.76598, 0.69803845
509.78098, 0.70721593
509.79598, 0.71482515
509.81098, 0.72080666
509.82598, 0.72511235
509.84098, 0.72770611
509.85599, 0.72856433
509.87099, 0.72767617
509.88599, 0.72504384
509.90099, 0.72068254
509.91599, 0.71462033
509.93099, 0.70689787
509.94599, 0.69756788
509.96100, 0.68669464
509.97600, 0.67435313
509.99100, 0.66062825
510.00600, 0.64561381
510.02100, 0.62941144
510.03600, 0.61212949
510.05101, 0.59388177
510.06601, 0.57478637
510.08101, 0.55496433
510.09601, 0.53453845
510.11101, 0.51363200
510.12601, 0.49236755
510.14101, 0.47086579
510.15602, 0.44924447
510.17102, 0.42761741
510.18602, 0.40609356
510.20102, 0.38477624
510.21602, 0.36376239
510.23102, 0.34314206
510.24602, 0.32299788
510.26103, 0.30340477
510.27603, 0.28442967
510.29103, 0.26613144
510.30603, 0.24856090
510.32103, 0.23176083
510.33603, 0.21576628
510.35104, 0.20060476
510.36604, 0.18629665
510.38104, 0.17285561
510.39604, 0.16028908
510.41104, 0.14859881
510.42604, 0.13778144
510.44104, 0.12782908
510.45605, 0.11872998
510.47105, 0.11046911
510.48605, 0.10302883
510.50105, 0.09638949
510.51605, 0.09053008
510.53105, 0.08542876
510.54605, 0.08106349
510.56106, 0.07741251
510.57606, 0.07445486
510.59106, 0.07217083
510.60606, 0.07054236
510.62106, 0.06955340
510.63606, 0.06919020
510.65107, 0.06944160
510.66607, 0.07029918
510.68107, 0.07175745
510.69607, 0.07381386
510.71107, 0.07646889
510.72607, 0.07972594
510.74107, 0.08359128
510.75608, 0.08807383
510.77108, 0.09318498
510.78608, 0.09893824
510.80108, 0.10534896
510.81608, 0.11243385
510.83108, 0.12021055
510.84608, 0.12869715
510.86109, 0.13791156
510.87609, 0.14787097
510.89109, 0.15859117
510.90609, 0.17008594
510.92109, 0.18236633
510.93609, 0.19543996
510.95110, 0.20931040
510.96610, 0.22397641
510.98110, 0.23943134
510.99610, 0.25566250
511.01110, 0.27265057
511.02610, 0.29036912
511.04110, 0.30878414
511.05611, 0.32785369
511.07111, 0.34752764
511.08611, 0.36774751
511.10111, 0.38844640
511.11611, 0.40954912
511.13111, 0.43097232
511.14611, 0.45262485
511.16112, 0.47440823
511.17612, 0.49621723
511.19112, 0.51794060
511.20612, 0.53946187
511.22112, 0.56066038
511.23612, 0.58141227
511.25113, 0.60159168
511.26613, 0.62107197
511.28113, 0.63972699
511.29613, 0.65743248
511.31113, 0.67406734
511.32613, 0.68951506
511.34113, 0.70366503
511.35614, 0.71641386
511.37114, 0.72766662
511.38614, 0.73733798
511.40114, 0.74535329
511.41614, 0.75164951
511.43114, 0.75617602
511.44614, 0.75889527
511.46115, 0.75978327
511.47615, 0.75882992
511.49115, 0.75603916
511.50615, 0.75142894
511.52115, 0.74503103
511.53615, 0.73689061
511.55116, 0.72706574
511.56616, 0.71562668
511.58116, 0.70265503
511.59616, 0.68824271
511.61116, 0.67249095
511.62616, 0.65550904
511.64116, 0.63741308
511.65617, 0.61832467
511.67117, 0.59836958
511.68617, 0.57767632
511.70117, 0.55637484
511.71617, 0.53459519
511.73117, 0.51246618
511.74617, 0.49011423
511.76118, 0.46766216
511.77618, 0.44522820
511.79118, 0.42292497
511.80618, 0.40085870
511.82118, 0.37912848
511.83618, 0.35782571
511.85119, 0.33703358
511.86619, 0.31682678
511.88119, 0.29727128
511.89619, 0.27842424
511.91119, 0.26033402
511.92619, 0.24304038
511.94119, 0.22657464
511.95620, 0.21096009
511.97120, 0.19621238
511.98620, 0.18233998
512.00120, 0.16934480
512.01620, 0.15722271
512.03120, 0.14596425
512.04620, 0.13555528
512.06121, 0.12597765
512.07621, 0.11720990
512.09121, 0.10922800
512.10621, 0.10200599
512.12121, 0.09551666
512.13621, 0.08973224
512.15122, 0.08462496
512.16622, 0.08016769
512.18122, 0.07633443
512.19622, 0.07310086
512.21122, 0.07044478
512.22622, 0.06834650
512.24122, 0.06678920
512.25623, 0.06575922
512.27123, 0.06524631
512.28623, 0.06524380
512.30123, 0.06574873
512.31623, 0.06676190
512.33123, 0.06828789
512.34623, 0.07033496
512.36124, 0.07291498
512.37624, 0.07604319
512.39124, 0.07973801
512.40624, 0.08402068
512.42124, 0.08891492
512.43624, 0.09444653
512.45125, 0.10064286
512.46625, 0.10753234
512.48125, 0.11514385
512.49625, 0.12350612
512.51125, 0.13264710
512.52625, 0.14259319
512.54125, 0.15336861
512.55626, 0.16499461
512.57126, 0.17748874
512.58626, 0.19086412
512.60126, 0.20512868
512.61626, 0.22028449
512.63126, 0.23632707
512.64626, 0.25324474
512.66127, 0.27101809
512.67627, 0.28961946
512.69127, 0.30901252
512.70627, 0.32915196
512.72127, 0.34998327
512.73627, 0.37144263
512.75128, 0.39345693
512.76628, 0.41594389
512.78128, 0.43881240
512.79628, 0.46196288
512.81128, 0.48528783
512.82628, 0.50867256
512.84128, 0.53199599
512.85629, 0.55513156
512.87129, 0.57794836
512.88629, 0.60031222
512.90129, 0.62208703
512.91629, 0.64313604
512.93129, 0.66332325
512.94629, 0.68251486
512.96130, 0.70058068
512.97630, 0.71739563
512.99130, 0.73284111
513.00630, 0.74680640
513.02130, 0.75918995
513.03630, 0.76990058
513.05131, 0.77885861
513.06631, 0.78599680
513.08131, 0.79126119
513.09631, 0.79461177
513.11131, 0.79602297
513.12631, 0.79548397
513.14131, 0.79299882
513.15632, 0.78858643
513.17132, 0.78228027
513.18632, 0.77412796
513.20132, 0.76419072
513.21632, 0.75254251
513.23132, 0.73926923
513.24632, 0.72446758
513.26133, 0.70824393
513.27633, 0.69071307
513.29133, 0.67199683
513.30633, 0.65222271
513.32133, 0.63152244
513.33633, 0.61003055
513.35134, 0.58788289
513.36634, 0.56521531
513.38134, 0.54216223
513.39634, 0.51885539
513.41134, 0.49542266
513.42634, 0.47198695
513.44134, 0.44866518
513.45635, 0.42556748
513.47135, 0.40279639
513.48635, 0.38044628
513.50135, 0.35860293
513.51635, 0.33734310
513.53135, 0.31673441
513.54635, 0.29683524
513.56136, 0.27769478
513.57636, 0.25935317
513.59136, 0.24184183
